FFT Dimension (GHz),Re( Z ) (ohm),Im( Z ) (ohm)
0,-0.00821127743,0
0.000123334094,-0.00821013656,0.0267618615
0.000246668188,-0.00819952693,0.0535223596
0.000370002281,-0.00818442833,0.0802816674
0.000493336375,-0.00816586427,0.10704305
0.0006166705,-0.00813853927,0.133803412
0.000740004563,-0.00810689107,0.160563499
0.000863338688,-0.0080673648,0.187324047
0.00098667275,-0.00802337378,0.214082539
0.00111000688,-0.00797464792,0.240840673
0.001233341,-0.00791844632,0.267599106
0.00135667513,-0.00785584934,0.294355154
0.00148000913,-0.00778921042,0.32111159
0.00160334325,-0.00771627948,0.347867906
0.00172667738,-0.00763581693,0.374621421
0.0018500115,-0.00755186845,0.401376843
0.0019733455,-0.00746171363,0.428129256
0.00209667963,-0.00736454595,0.45487991
0.00222001375,-0.00726424484,0.481629819
0.00234334775,-0.00715564983,0.508378625
0.002466682,-0.00704255886,0.535125732
0.002590016,-0.00692436332,0.561873496
0.00271335025,-0.0068002101,0.588616848
0.00283668425,-0.00666857138,0.615360796
0.00296001825,-0.00653247815,0.642102957
0.0030833525,-0.00639193226,0.668842256
0.0032066865,-0.00624416256,0.695579886
0.00333002075,-0.00609215489,0.722316802
0.00345335475,-0.00593554555,0.749050975
0.00357668875,-0.00577144371,0.775782406
0.003700023,-0.00560438819,0.802514553
0.003823357,-0.00542929769,0.829242051
0.003946691,-0.00525197573,0.855968595
0.00407002525,-0.00506650424,0.882692456
0.00419335925,-0.00487792538,0.909414887
0.0043166935,-0.00468334835,0.936134398
0.0044400275,-0.004483575,0.962851763
0.0045633615,-0.00427816669,0.989565969
0.0046866955,-0.00407002587,1.01627922
0.00481003,-0.00385466125,1.04298961
0.004933364,-0.00363550615,1.06969643
0.005056698,-0.00340944016,1.09640002
0.005180032,-0.00318096834,1.12310219
0.005303366,-0.00294628344,1.14980161
0.0054267005,-0.00270770653,1.17649674
0.0055500345,-0.00246409955,1.20319128
0.0056733685,-0.0022164206,1.22988129
0.0057967025,-0.00196186872,1.25656867
0.0059200365,-0.00170483813,1.28325319
0.006043371,-0.00144342845,1.30993366
0.006166705,-0.0011782134,1.33661246
0.006290039,-0.000907193637,1.3632865
0.006413373,-0.000632328505,1.38995934
0.006536707,-0.000354102085,1.41662657
0.0066600415,-7.03278711e-05,1.44329178
0.0067833755,0.000216670669,1.46995389
0.0069067095,0.000508046534,1.49661112
0.0070300435,0.000803655304,1.52326703
0.0071533775,0.00110342819,1.54991722
0.0072767115,0.00140495598,1.57656503
0.007400046,0.00171179371,1.60320902
0.00752338,0.00202351972,1.62985015
0.007646714,0.00233770045,1.65648639
0.007770048,0.00265392824,1.68311942
0.007893382,0.00297432253,1.70974779
0.0080167165,0.00329905166,1.73637319
0.0081400505,0.00362815941,1.76299465
0.0082633845,0.0039594532,1.78961241
0.0083867185,0.00429277867,1.81622565
0.008510053,0.00463071465,1.84283674
0.008633387,0.00497124624,1.86944199
0.008756721,0.00531441625,1.89604414
0.008880055,0.00566157652,1.92264116
0.009003389,0.00601016032,1.94923627
0.009126723,0.00636329502,1.97582543
0.009250057,0.00671681296,2.00241089
0.009373391,0.00707441894,2.02899313
0.009496725,0.00743467687,2.05556941
0.00962006,0.00779472478,2.08214331
0.009743394,0.00816051848,2.10871363
0.009866728,0.00852779206,2.13527703
0.009990062,0.0088965157,2.16183734
0.010113396,0.00926605891,2.18839431
0.01023673,0.00963981822,2.21494675
0.010360064,0.0100145061,2.2414937
0.010483398,0.010390874,2.26803803
0.010606732,0.0107695833,2.29457641
0.010730066,0.0111496067,2.32111144
0.010853401,0.0115314126,2.34764361
0.010976735,0.0119133247,2.3741684
0.011100069,0.0122991512,2.40069056
0.011223403,0.0126844198,2.42720819
0.011346737,0.013072269,2.45372152
0.011470071,0.0134596014,2.48023129
0.011593405,0.0138508491,2.50673556
0.011716739,0.0142389759,2.53323436
0.011840073,0.0146297086,2.55973125
0.011963407,0.0150211975,2.5862236
0.012086742,0.0154144848,2.61271119
0.012210076,0.015807569,2.63919306
0.01233341,0.0162001513,2.66567254
0.012456744,0.0165945105,2.6921463
0.012580078,0.0169891026,2.71861649
0.012703412,0.0173840672,2.74508071
0.012826746,0.0177778155,2.77154374
0.01295008,0.018172523,2.79800081
0.013073414,0.0185671933,2.82445264
0.013196748,0.0189622175,2.85090137
0.013320083,0.0193560049,2.87734509
0.013443417,0.0197499413,2.9037869
0.013566751,0.0201450568,2.93022203
0.013690085,0.0205385257,2.95665288
0.013813419,0.0209312346,2.98308086
0.013936753,0.0213216972,3.00950527
0.014060087,0.0217140634,3.03592348
0.014183421,0.0221032891,3.06234169
0.014306755,0.0224934127,3.08875155
0.014430089,0.0228815228,3.11515975
0.014553423,0.0232681613,3.14156318
0.014676758,0.0236554462,3.16796231
0.014800092,0.0240385327,3.19435763
0.014923426,0.0244214684,3.2207489
0.01504676,0.0248050336,3.24713778
0.015170094,0.0251858272,3.27352166
0.015293428,0.0255638473,3.29990101
0.015416762,0.0259396825,3.32627869
0.015540096,0.0263143126,3.35265255
0.01566343,0.0266884267,3.37902236
0.015786764,0.0270591211,3.4053874
0.015910099,0.027429631,3.43175054
0.016033433,0.0277948547,3.45811033
0.016156767,0.0281596947,3.48446536
0.016280101,0.0285211094,3.51081705
0.016403435,0.0288795829,3.5371666
0.016526769,0.0292372834,3.56351161
0.016650103,0.0295919422,3.58985257
0.016773437,0.0299424883,3.61619234
0.016896772,0.0302938148,3.64252853
0.017020106,0.030639166,3.6688621
0.01714344,0.0309833344,3.69519019
0.017266774,0.0313223153,3.72151804
0.017390108,0.0316596292,3.7478435
0.017513442,0.0319933146,3.77416348
0.017636776,0.0323248357,3.80048227
0.01776011,0.0326527394,3.82679796
0.017883444,0.0329746827,3.85311317
0.018006778,0.033297088,3.87942338
0.018130112,0.0336137414,3.90573263
0.018253446,0.0339267701,3.93203783
0.01837678,0.034235891,3.95834255
0.018500114,0.0345419794,3.98464346
0.018623448,0.0348440632,4.01094246
0.018746782,0.0351409838,4.03723955
0.018870116,0.0354346856,4.06353664
0.01899345,0.0357249714,4.08982849
0.019116786,0.0360095277,4.11612034
0.01924012,0.036292702,4.14241076
0.019363454,0.0365689881,4.16869926
0.019486788,0.0368417725,4.19498491
0.019610122,0.037109714,4.22127104
0.019733456,0.0373732857,4.24755239
0.01985679,0.0376326032,4.27383614
0.019980124,0.0378878489,4.30011702
0.020103458,0.0381387472,4.32639551
0.020226792,0.0383838601,4.35267496
0.020350126,0.0386229828,4.37895298
0.02047346,0.0388601869,4.40523052
0.020596794,0.0390908495,4.43150616
0.020720128,0.0393170789,4.45778084
0.020843462,0.0395381339,4.48405695
0.020966796,0.0397541933,4.51032925
0.02109013,0.0399652757,4.53660393
0.021213464,0.0401710011,4.56287718
0.021336798,0.0403708965,4.58915043
0.021460132,0.040566314,4.61542368
0.021583468,0.0407572612,4.64169693
0.021706802,0.0409412347,4.66796923
0.021830136,0.0411206633,4.694242
0.02195347,0.0412944891,4.72051573
0.022076804,0.0414636843,4.74678946
0.022200138,0.0416261442,4.77306318
0.022323472,0.0417830274,4.79933834
0.022446806,0.0419350117,4.82561255
0.02257014,0.0420806892,4.85189056
0.022693474,0.0422223248,4.8781662
0.022816808,0.0423567183,4.90444374
0.022940142,0.0424857698,4.93072176
0.023063476,0.0426096804,4.95700359
0.02318681,0.0427271388,4.98328495
0.023310144,0.042838335,5.00956869
0.023433478,0.0429440439,5.03585339
0.023556812,0.0430450253,5.06213856
0.023680146,0.0431401655,5.08842707
0.02380348,0.0432302244,5.11471653
0.023926814,0.043311242,5.1410079
0.024050148,0.0433877669,5.16729975
0.024173484,0.043458499,5.19359732
0.024296818,0.0435241871,5.21989536
0.024420152,0.0435822196,5.24619532
0.024543486,0.0436369218,5.27249622
0.02466682,0.043683812,5.29880333
0.024790154,0.0437240191,5.32511139
0.024913488,0.0437586866,5.35142422
0.025036822,0.0437872559,5.37773561
0.025160156,0.0438112468,5.40405273
0.02528349,0.0438267514,5.43037367
0.025406824,0.0438390002,5.45669699
0.025530158,0.0438429713,5.48302317
0.025653492,0.0438424125,5.50935268
0.025776826,0.043834731,5.53568697
0.02590016,0.0438225418,5.56202364
0.026023494,0.043802876,5.58836412
0.026146828,0.0437779985,5.61471033
0.026270162,0.0437479019,5.64105892
0.026393496,0.0437087193,5.66741323
0.02651683,0.043670103,5.69376898
0.026640166,0.0436194651,5.7201314
0.0267635,0.0435640402,5.74649668
0.026886834,0.0435044058,5.77286863
0.027010168,0.0434378088,5.79924297
0.027133502,0.043364808,5.82562256
0.027256836,0.0432865359,5.8520093
0.02738017,0.0432026275,5.87839794
0.027503504,0.0431136563,5.90479326
0.027626838,0.0430194587,5.93119383
0.027750172,0.042918209,5.95760059
0.027873506,0.0428091846,5.98401117
0.02799684,0.0426960811,6.01042652
0.028120174,0.0425805673,6.0368495
0.028243508,0.0424553119,6.06327581
0.028366842,0.0423267633,6.08971024
0.028490176,0.0421890691,6.1161499
0.02861351,0.0420508459,6.14259434
0.028736844,0.0419049822,6.16904593
0.028860178,0.0417545885,6.19550419
0.028983512,0.0415969677,6.22196817
0.029106846,0.0414348468,6.24843836
0.029230182,0.0412671752,6.2749157
0.029353516,0.0410948619,6.30139971
0.02947685,0.0409182906,6.32788944
0.029600184,0.0407336727,6.35438681
0.029723518,0.0405457355,6.38088942
0.029846852,0.0403537638,6.40740061
0.029970186,0.0401556194,6.43391895
0.03009352,0.0399523936,6.46044397
0.030216854,0.0397441052,6.48697519
0.030340188,0.039531678,6.51351547
0.030463522,0.039314229,6.54006243
0.030586856,0.0390903279,6.56661654
0.03071019,0.038864132,6.5931778
0.030833524,0.0386335142,6.61974859
0.030956858,0.0383979231,6.64632463
0.031080192,0.0381549001,6.67291164
0.031203526,0.0379112549,6.69950438
0.03132686,0.0376614556,6.72610617
0.031450194,0.0374067686,6.75271606
0.031573528,0.0371490084,6.77933216
0.031696864,0.0368874595,6.80595589
0.031820198,0.0366205573,6.8325901
0.031943532,0.0363497324,6.85923195
0.032066866,0.0360766016,6.88588428
0.0321902,0.0357972719,6.91254091
0.032313534,0.0355154909,6.93920898
0.032436868,0.0352291502,6.96588755
0.032560202,0.0349410921,6.99256992
0.032683536,0.0346474424,7.01926231
0.03280687,0.0343510546,7.04596567
0.032930204,0.0340508744,7.07267666
0.033053538,0.0337465741,7.09939766
0.033176872,0.0334392264,7.12612772
0.033300206,0.0331288427,7.15286446
0.03342354,0.032816153,7.17961216
0.033546874,0.0324979946,7.20636749
0.033670208,0.0321800075,7.23313284
0.033793544,0.0318569504,7.25990868
0.033916876,0.031532336,7.28669405
0.034040212,0.0312023405,7.31348801
0.034163544,0.0308715142,7.34029055
0.03428688,0.0305377804,7.36710262
0.034410212,0.0302018467,7.39392424
0.034533548,0.0298626907,7.42075682
0.03465688,0.029521022,7.4475975
0.034780216,0.0291785803,7.47444868
0.034903548,0.0288329646,7.50130892
0.035026884,0.0284855664,7.52817869
0.035150216,0.0281339828,7.55505896
0.035273552,0.0277823787,7.58194923
0.035396884,0.027428342,7.60884905
0.03552022,0.0270736068,7.63575745
0.035643556,0.026713388,7.66267586
0.035766888,0.0263548996,7.68960524
0.035890224,0.0259923227,7.71654463
0.036013556,0.0256301351,7.74349356
0.036136892,0.0252676494,7.77045202
0.036260224,0.024900442,7.79742193
0.03638356,0.0245339889,7.8244009
0.036506892,0.0241655707,7.85138893
0.036630228,0.0237962268,7.87838936
0.03675356,0.023424603,7.90539742
0.036876896,0.023053091,7.93241787
0.037000228,0.0226813629,7.95944691
0.037123564,0.0223077331,7.98648739
0.037246896,0.0219332278,8.01353645
0.037370232,0.0215575211,8.04059601
0.037493564,0.0211823154,8.06766605
0.0376169,0.0208069347,8.09474564
0.037740232,0.0204300508,8.12183666
0.037863568,0.0200496633,8.14893723
0.0379869,0.0196748357,8.17604637
0.038110236,0.0192971881,8.20316792
0.038233572,0.0189187583,8.23029995
0.038356904,0.0185398739,8.25744057
0.03848024,0.018162217,8.28459167
0.038603572,0.0177824702,8.31175423
0.038726908,0.0174046271,8.33892632
0.03885024,0.0170257073,8.36610794
0.038973576,0.0166493654,8.39330101
0.039096908,0.0162713006,8.42050171
0.039220244,0.0158915278,8.44771385
0.039343576,0.0155163268,8.47493839
0.039466912,0.0151387742,8.50217056
0.039590244,0.0147621781,8.52941418
0.03971358,0.014387195,8.55666924
0.039836912,0.0140112033,8.58392906
0.039960248,0.0136374943,8.61120415
0.04008358,0.01326345,8.63848877
0.040206916,0.0128907077,8.66578102
0.040330248,0.0125202555,8.69308472
0.040453584,0.0121468818,8.720397
0.04057692,0.0117787318,8.74772072
0.040700252,0.0114080049,8.77505493
0.040823588,0.0110402284,8.80240059
0.04094692,0.0106744254,8.82975197
0.041070256,0.0103083393,8.8571167
0.041193588,0.00994423591,8.88448715
0.041316924,0.00958211441,8.91187286
0.041440256,0.00921940245,8.93926525
0.041563592,0.00885739923,8.96667004
0.041686924,0.00849834736,8.9940815
0.04181026,0.00814096816,9.02150536
0.041933592,0.00778430374,9.0489378
0.042056928,0.00743122865,9.07638168
0.04218026,0.00707727717,9.10383129
0.042303596,0.00672500767,9.1312933
0.042426928,0.0063772779,9.15876484
0.042550264,0.00602583308,9.18624687
0.042673596,0.00567956315,9.21373653
0.042796932,0.00533560803,9.24123669
0.042920264,0.00499238912,9.26874733
0.0430436,0.00465117069,9.29626656
0.043166936,0.00431226892,9.32379723
0.043290268,0.00397536531,9.35133457
0.043413604,0.00363889406,9.37888145
0.043536936,0.00330411433,9.40643978
0.043660272,0.00297414954,9.43400574
0.043783604,0.0026449319,9.46158218
0.04390694,0.00231677853,9.48916721
0.044030272,0.00199155789,9.51676178
0.044153608,0.00166740327,9.54436684
0.04427694,0.00134431862,9.57197952
0.044400276,0.00102632807,9.5996027
0.044523608,0.000709710643,9.62723446
0.044646944,0.000394776987,9.65487385
0.044770276,7.99895497e-05,9.68252563
0.044893612,-0.000231878774,9.71018505
0.045016944,-0.000539300556,9.73785305
0.04514028,-0.000845962262,9.76552963
0.045263612,-0.00114849757,9.79321575
0.045386948,-0.00145271327,9.82091236
0.04551028,-0.00175097992,9.84861469
0.045633616,-0.00205182889,9.87632942
0.045756952,-0.00234552915,9.90405273
0.045880284,-0.00263998285,9.93178177
0.04600362,-0.00293154852,9.95952225
0.046126952,-0.00321842264,9.98727226
0.046250288,-0.00350634311,10.015028
0.04637362,-0.00379198813,10.0427952
0.046496956,-0.00407295767,10.0705709
0.046620288,-0.00435256632,10.0983515
0.046743624,-0.00463170698,10.1261463
0.046866956,-0.00490679126,10.1539478
0.046990292,-0.00517783128,10.1817551
0.047113624,-0.00545078982,10.2095757
0.04723696,-0.00571792666,10.237401
0.047360292,-0.0059863776,10.2652397
0.047483628,-0.00624961872,10.2930822
0.04760696,-0.00651180139,10.3209343
0.047730296,-0.00677351281,10.3487959
0.047853628,-0.0070313504,10.376668
0.047976964,-0.00728720892,10.4045467
0.048100296,-0.0075417175,10.4324312
0.048223632,-0.00779249053,10.4603281
0.048346968,-0.0080424631,10.4882307
0.0484703,-0.00828864798,10.5161438
0.048593636,-0.00853399187,10.5440636
0.048716968,-0.00877669081,10.5719919
0.048840304,-0.00901731662,10.5999327
0.048963636,-0.00925524719,10.6278763
0.049086972,-0.00949346926,10.6558313
0.049210304,-0.0097307656,10.6837921
0.04933364,-0.00995988119,10.7117634
0.049456972,-0.0101922536,10.7397442
0.049580308,-0.0104218302,10.7677345
0.04970364,-0.0106461588,10.7957306
0.049826976,-0.0108725047,10.8237324
0.049950308,-0.0110959914,10.8517456
0.050073644,-0.0113172075,10.8797655
0.050196976,-0.0115373582,10.9077959
0.050320312,-0.0117539745,10.935833
0.050443644,-0.0119701037,10.9638796
0.05056698,-0.012183886,10.9919338
0.050690312,-0.0123965377,11.0199986
0.050813648,-0.0126074264,11.048069
0.050936984,-0.0128165353,11.0761442
0.051060316,-0.0130226081,11.1042337
0.051183652,-0.0132274861,11.1323309
0.051306984,-0.0134311551,11.1604357
0.05143032,-0.0136317294,11.1885509
0.051553652,-0.0138335666,11.2166691
0.051676988,-0.0140322819,11.2448006
0.05180032,-0.0142291021,11.2729368
0.051923656,-0.014425274,11.3010845
0.052046988,-0.0146182645,11.3292379
0.052170324,-0.0148112122,11.3574018
0.052293656,-0.0150034754,11.3855743
0.052416992,-0.0151918735,11.4137545
0.052540324,-0.0153808314,11.4419422
0.05266366,-0.0155684343,11.4701385
0.052786992,-0.0157533959,11.4983435
0.052910328,-0.0159356929,11.526557
0.05303366,-0.0161178764,11.55478
0.053156996,-0.0162992887,11.5830107
0.053280332,-0.016478641,11.611249
0.053403664,-0.0166584942,11.6394968
0.053527,-0.0168362632,11.6677561
0.053650332,-0.0170099959,11.6960211
0.053773668,-0.0171867888,11.7242966
0.053897,-0.0173601639,11.7525778
0.054020336,-0.0175314005,11.7808676
0.054143668,-0.0177037399,11.8091717
0.054267004,-0.0178726148,11.8374777
0.054390336,-0.0180432331,11.8657951
0.054513672,-0.0182083994,11.8941221
0.054637004,-0.0183772612,11.9224577
0.05476034,-0.0185432639,11.9508009
0.054883672,-0.0187083669,11.9791546
0.055007008,-0.0188712366,12.007514
0.05513034,-0.0190331861,12.0358858
0.055253676,-0.0191942006,12.0642662
0.055377008,-0.0193556026,12.0926552
0.055500344,-0.0195127372,12.1210518
0.055623676,-0.0196715705,12.1494579
0.055747012,-0.0198287778,12.1778746
0.055870348,-0.0199876782,12.2063007
0.05599368,-0.0201409273,12.2347345
0.056117016,-0.0202965271,12.2631769
0.056240348,-0.0204491224,12.2916298
0.056363684,-0.0206013806,12.3200912
0.056487016,-0.0207546446,12.3485632
0.056610352,-0.0209048707,12.3770437
0.056733684,-0.0210547391,12.4055328
0.05685702,-0.0212028995,12.4340334
0.056980352,-0.0213513654,12.4625416
0.057103688,-0.0214974284,12.4910603
0.05722702,-0.0216458272,12.5195894
0.057350356,-0.0217877179,12.5481243
0.057473688,-0.0219360292,12.5766745
0.057597024,-0.022078488,12.6052275
0.057720356,-0.0222205427,12.6337976
0.057843692,-0.0223642401,12.6623726
0.057967024,-0.0225034095,12.690958
0.05809036,-0.0226449016,12.7195511
0.058213692,-0.0227832198,12.7481604
0.058337028,-0.0229190271,12.7767744
0.058460364,-0.0230592266,12.8053999
0.058583696,-0.0231948402,12.8340359
0.058707032,-0.023332078,12.8626795
0.058830364,-0.0234646946,12.8913336
0.0589537,-0.0235989336,12.9199982
0.059077032,-0.023732705,12.9486761
0.059200368,-0.0238646101,12.9773607
0.0593237,-0.0239960346,13.0060568
0.059447036,-0.0241255779,13.0347605
0.059570368,-0.024255326,13.0634756
0.059693704,-0.0243824776,13.0922022
0.059817036,-0.0245098267,13.1209393
0.059940372,-0.0246359631,13.1496868
0.060063704,-0.0247601792,13.1784439
0.06018704,-0.0248866938,13.2072134
0.060310372,-0.0250091515,13.2359896
0.060433708,-0.0251317881,13.2647781
0.06055704,-0.0252538938,13.2935762
0.060680376,-0.0253719054,13.3223867
0.060803708,-0.0254922099,13.3512077
0.060927044,-0.0256084036,13.3800392
0.06105038,-0.0257247444,13.4088802
0.061173712,-0.0258419476,13.4377327
0.061297048,-0.0259557292,13.4665956
0.06142038,-0.0260682106,13.4954681
0.061543716,-0.0261829849,13.5243559
0.061667048,-0.0262892619,13.5532513
0.061790384,-0.0264014211,13.5821562
0.061913716,-0.0265108198,13.6110706
0.062037052,-0.0266181789,13.6400013
0.062160384,-0.0267242007,13.6689415
0.06228372,-0.0268288814,13.6978903
0.062407052,-0.0269314945,13.7268534
0.062530388,-0.0270338394,13.755826
0.06265372,-0.027133001,13.7848063
0.062777056,-0.0272322558,13.8138008
0.062900388,-0.0273283087,13.8428049
0.063023724,-0.0274255294,13.8718224
0.063147056,-0.0275210049,13.9008493
0.063270392,-0.0276154503,13.9298916
0.063393728,-0.0277081262,13.9589386
0.06351706,-0.0277975611,13.9879999
0.063640396,-0.0278848391,14.0170708
0.063763728,-0.0279729012,14.046154
0.063887064,-0.0280580614,14.0752516
0.064010396,-0.0281399377,14.1043577
0.064133732,-0.0282251667,14.1334743
0.064257064,-0.0283052493,14.1626034
0.0643804,-0.0283838753,14.1917458
0.064503732,-0.0284606572,14.2208958
0.064627068,-0.0285370853,14.2500582
0.0647504,-0.0286101736,14.2792339
0.064873736,-0.0286810249,14.3084192
0.064997068,-0.0287503768,14.3376169
0.065120404,-0.0288223401,14.3668242
0.065243736,-0.0288864449,14.3960447
0.065367072,-0.028950898,14.4252768
0.065490404,-0.0290145781,14.4545212
0.06561374,-0.0290725995,14.4837742
0.065737072,-0.0291335918,14.5130434
0.065860408,-0.0291896518,14.5423193
0.065983744,-0.0292430278,14.5716076
0.066107076,-0.0292978659,14.6009121
0.066230412,-0.0293473545,14.6302223
0.066353744,-0.0293933805,14.6595449
0.06647708,-0.0294419862,14.6888809
0.066600412,-0.0294867326,14.7182283
0.066723748,-0.0295283645,14.7475863
0.06684708,-0.029566491,14.7769566
0.066970416,-0.0296068098,14.8063374
0.067093748,-0.0296428483,14.8357306
0.06721708,-0.0296738353,14.8651381
